8
demoexperiment1_00005
Range: [1, 1, 1, 1, 1, 1, 1, 1, 1, 1, 1, 1, 1, 1, 1, 1, 1, 1, 1, 1, 1, 1, 1, 1, 1, 1, 1, 1, 1, 1, 1, 1, 1, 1, 1, 1, 1, 1, 1, 1, 1, 1, 1, 1, 1, 1, 1, 1, 1, 1, 1, 1, 1, 1, 1, 1, 1, 1, 1, 1, 1, 1, 1, 1, 1, 1, 1, 1, 1, 1, 1, 1, 1, 1, 1, 1, 1, 1, 1, 1, 1, 1, 1, 1, 1, 1, 1, 1, 1, 1, 1, 1, 1, 1, 1, 1, 1, 1, 1, 1, 1]
Offset: 0.0V
VoltRange:[1, 1, 1, 1, 1, 1, 1, 1, 1, 1, 1, 1, 1, 1, 1, 1, 1, 1, 1, 1, 1, 1, 1, 1, 1, 1, 1, 1, 1, 1, 1, 1, 1, 1, 1, 1, 1, 1, 1, 1, 1, 1, 1, 1, 1, 1, 1, 1, 1, 1, 1, 1, 1, 1, 1, 1, 1, 1, 1, 1, 1, 1, 1, 1, 1, 1, 1, 1, 1, 1, 1, 1, 1, 1, 1, 1, 1, 1, 1, 1, 1, 1, 1, 1, 1, 1, 1, 1, 1, 1, 1, 1, 1, 1, 1, 1, 1, 1, 1, 1, 1]
Channel: ECISadapter 5
31-Mar.-2025 10:12:49:382 p.m.
frequency[Hz],Re[Ohm],Im[Ohm]
100.00076293945312,2946.170166015625,-13326.8818359375
109.77964782714844,2565.46044921875,-11927.962890625
120.48986053466797,2447.869140625,-11048.8037109375
132.247802734375,2386.57568359375,-10131.6796875
145.05349731445312,2186.84228515625,-9301.4091796875
159.25616455078125,2063.42626953125,-8639.966796875
174.73941040039062,1863.810302734375,-7948.2314453125
191.7360382080078,1775.955078125,-7329.81298828125
210.47891235351562,1636.980712890625,-6824.8271484375
230.96800231933594,1518.8848876953125,-6263.82177734375
253.55258178710938,1423.80908203125,-5780.3818359375
278.2326354980469,1341.2490234375,-5334.9130859375
305.3573913574219,1241.5211181640625,-4981.72216796875
335.15972900390625,1136.3785400390625,-4653.40478515625
367.8724365234375,1081.9097900390625,-4253.18603515625
403.72833251953125,1008.1655883789062,-3932.92138671875
443.07672119140625,938.7743530273438,-3619.865478515625
486.2668151855469,877.9951782226562,-3370.37158203125
533.6478271484375,833.627197265625,-3123.86572265625
585.6854858398438,762.7838134765625,-2890.12060546875
642.8453979492188,723.712158203125,-2673.324951171875
705.4768676757812,673.0502319335938,-2479.349609375
774.2783203125,616.8240356445312,-2298.72119140625
849.7154541015625,578.2716064453125,-2129.20166015625
932.6031494140625,540.0281982421875,-1969.4495849609375
1023.5235595703125,505.25579833984375,-1825.01123046875
1123.29150390625,461.5057067871094,-1679.062744140625
1232.8382568359375,484.0861511230469,-1715.92529296875
1353.0953369140625,402.59063720703125,-1445.384521484375
1484.993896484375,372.80322265625,-1338.352783203125
1629.6981201171875,345.8374328613281,-1234.7801513671875
1788.6051025390625,322.956298828125,-1143.484130859375
1962.9952392578125,301.1237487792969,-1058.122314453125
2154.382080078125,277.2450256347656,-976.4318237304688
2364.51171875,259.6724548339844,-903.7386474609375
2595.013916015625,242.1582489013672,-836.591064453125
2847.984619140625,224.8905792236328,-772.236572265625
3125.75146484375,209.66358947753906,-713.606201171875
3430.52685546875,195.97898864746094,-660.6371459960938
3764.988037109375,183.2958984375,-610.3584594726562
4132.04541015625,171.5268096923828,-564.4692993164062
4534.8427734375,160.6942596435547,-521.1997680664062
4976.98779296875,150.9910888671875,-481.8245849609375
5462.3232421875,141.65721130371094,-444.9378662109375
5994.80712890625,133.36618041992188,-410.9809265136719
6579.32861328125,125.72635650634766,-379.2455139160156
7220.77685546875,118.49615478515625,-350.1167297363281
7924.85693359375,111.95875549316406,-322.8826904296875
8697.5048828125,105.93782043457031,-297.9179382324219
9545.474609375,100.36588287353516,-274.6853332519531
10476.0986328125,95.40357208251953,-253.47549438476562
11497.5263671875,90.78094482421875,-233.9123992919922
12618.6064453125,86.66405487060547,-215.9287872314453
13848.8837890625,82.84185028076172,-199.34814453125
15199.068359375,79.27719116210938,-184.06494140625
16681.03515625,76.04341888427734,-169.9732208251953
18307.357421875,73.02136993408203,-157.04864501953125
20092.353515625,70.28397369384766,-145.08120727539062
22051.275390625,67.69852447509766,-134.0719757080078
24201.232421875,65.32786560058594,-123.87806701660156
26560.85546875,63.08262252807617,-114.45606231689453
29150.513671875,61.00924301147461,-105.7745361328125
31992.677734375,59.08474349975586,-97.76726531982422
35111.91015625,57.276065826416016,-90.39447021484375
38535.3359375,55.58395767211914,-83.54412078857422
42292.40625,54.02592086791992,-77.24436950683594
46415.8359375,52.56757354736328,-71.4085922241211
50941.3671875,51.22357177734375,-66.0434341430664
55908.109375,49.991302490234375,-61.091697692871094
61359.02734375,48.868675231933594,-56.536705017089844
67341.4921875,47.864139556884766,-52.34809494018555
73907.203125,46.9551887512207,-48.49223327636719
81113.078125,46.08975601196289,-44.90903854370117
89021.515625,45.28192901611328,-41.59638214111328
97700.9765625,44.506954193115234,-38.514259338378906
107226.6640625,43.74484634399414,-35.660972595214844
117681.2265625,43.03636932373047,-33.01177978515625
129155.0,42.407554626464844,-30.578289031982422
141747.421875,41.85091781616211,-28.34581756591797
155567.546875,41.345191955566406,-26.29326629638672
170735.1875,40.84359359741211,-24.386566162109375
187381.765625,40.35757064819336,-22.61043357849121
205651.171875,39.92283248901367,-20.985937118530273
225701.953125,39.532039642333984,-19.48819923400879
247707.59375,39.13978958129883,-18.09903335571289
271858.78125,38.7636604309082,-16.81875228881836
298364.6875,38.4307861328125,-15.633393287658691
327454.875,38.08911895751953,-14.53938102722168
359381.3125,37.79337692260742,-13.53293228149414
394420.46875,37.49187469482422,-12.599015235900879
432876.0625,37.216819763183594,-11.731040000915527
475080.9375,36.947967529296875,-10.924081802368164
521400.71875,36.70639419555664,-10.184494018554688
572236.75,36.47178268432617,-9.495859146118164
628029.0,36.255374908447266,-8.856242179870605
689261.0,36.05295181274414,-8.260971069335938
756463.1875,35.868221282958984,-7.713889122009277
830217.375,35.69044494628906,-7.216526031494141
911162.625,35.536312103271484,-6.742229461669922
999999.8125,35.3823127746582,-6.31370735168457
4000.030517578125,173.4605712890625,-583.650390625
