8
demoexperiment1_00002
Range: [1, 1, 1, 1, 1, 1, 1, 1, 1, 1, 1, 1, 1, 1, 1, 1, 1, 1, 1, 1, 1, 1, 1, 1, 1, 1, 1, 1, 1, 1, 1, 1, 1, 1, 1, 1, 1, 1, 1, 1, 1, 1, 1, 1, 1, 1, 1, 1, 1, 1, 1, 1, 1, 1, 1, 1, 1, 1, 1, 1, 1, 1, 1, 1, 1, 1, 1, 1, 1, 1, 1, 1, 1, 1, 1, 1, 1, 1, 1, 1, 1, 1, 1, 1, 1, 1, 1, 1, 1, 1, 1, 1, 1, 1, 1, 1, 1, 1, 1, 1, 1]
Offset: 0.0V
VoltRange:[1, 1, 1, 1, 1, 1, 1, 1, 1, 1, 1, 1, 1, 1, 1, 1, 1, 1, 1, 1, 1, 1, 1, 1, 1, 1, 1, 1, 1, 1, 1, 1, 1, 1, 1, 1, 1, 1, 1, 1, 1, 1, 1, 1, 1, 1, 1, 1, 1, 1, 1, 1, 1, 1, 1, 1, 1, 1, 1, 1, 1, 1, 1, 1, 1, 1, 1, 1, 1, 1, 1, 1, 1, 1, 1, 1, 1, 1, 1, 1, 1, 1, 1, 1, 1, 1, 1, 1, 1, 1, 1, 1, 1, 1, 1, 1, 1, 1, 1, 1, 1]
Channel: ECISadapter 5
31-Mar.-2025 10:12:40:790 p.m.
frequency[Hz],Re[Ohm],Im[Ohm]
100.00076293945312,2855.400146484375,-13218.6669921875
109.77964782714844,2610.3603515625,-11829.939453125
120.48986053466797,2352.39111328125,-10872.9921875
132.247802734375,2328.068115234375,-10122.5009765625
145.05349731445312,2220.995361328125,-9276.6669921875
159.25616455078125,2149.299072265625,-8594.73046875
174.73941040039062,1976.394775390625,-7951.5869140625
191.7360382080078,1758.7733154296875,-7318.83349609375
210.47891235351562,1687.5653076171875,-6761.8515625
230.96800231933594,1537.2698974609375,-6247.15771484375
253.55258178710938,1422.00048828125,-5778.69580078125
278.2326354980469,1353.2723388671875,-5367.77734375
305.3573913574219,1248.220947265625,-4982.96044921875
335.15972900390625,1159.7947998046875,-4566.16845703125
367.8724365234375,1095.095458984375,-4235.474609375
403.72833251953125,1013.5046997070312,-3904.1796875
443.07672119140625,943.602783203125,-3636.13623046875
486.2668151855469,872.9690551757812,-3375.31494140625
533.6478271484375,828.0996704101562,-3112.696044921875
585.6854858398438,769.039794921875,-2883.61962890625
642.8453979492188,720.0213012695312,-2666.3046875
705.4768676757812,666.6688232421875,-2476.000244140625
774.2783203125,623.6425170898438,-2297.70654296875
849.7154541015625,579.1727905273438,-2126.40966796875
932.6031494140625,539.2686157226562,-1969.041259765625
1023.5235595703125,505.19818115234375,-1828.4127197265625
1123.29150390625,460.50201416015625,-1676.0931396484375
1232.8382568359375,481.9358215332031,-1717.5758056640625
1353.0953369140625,400.9259338378906,-1445.1939697265625
1484.993896484375,374.8636474609375,-1336.825927734375
1629.6981201171875,347.76312255859375,-1232.4681396484375
1788.6051025390625,320.6441345214844,-1142.815673828125
1962.9952392578125,300.7063293457031,-1056.2799072265625
2154.382080078125,277.80657958984375,-974.6322631835938
2364.51171875,259.36798095703125,-903.6243286132812
2595.013916015625,241.01377868652344,-835.454833984375
2847.984619140625,225.02471923828125,-771.9977416992188
3125.75146484375,209.1630096435547,-712.94482421875
3430.52685546875,195.73388671875,-659.9349975585938
3764.988037109375,182.80747985839844,-609.8148193359375
4132.04541015625,171.4678955078125,-563.8193969726562
4534.8427734375,160.9196319580078,-521.1767578125
4976.98779296875,150.4626007080078,-481.25323486328125
5462.3232421875,141.49928283691406,-444.56024169921875
5994.80712890625,133.02981567382812,-410.69976806640625
6579.32861328125,125.35419464111328,-379.0499267578125
7220.77685546875,118.28359985351562,-349.8315734863281
7924.85693359375,111.68603515625,-322.56732177734375
8697.5048828125,105.74848937988281,-297.45977783203125
9545.474609375,100.20775604248047,-274.330078125
10476.0986328125,95.2091064453125,-253.11070251464844
11497.5263671875,90.6787338256836,-233.61685180664062
12618.6064453125,86.50275421142578,-215.63919067382812
13848.8837890625,82.6706771850586,-199.10226440429688
15199.068359375,79.11873626708984,-183.87403869628906
16681.03515625,75.88980102539062,-169.80410766601562
18307.357421875,72.89993286132812,-156.84613037109375
20092.353515625,70.13220977783203,-144.8887176513672
22051.275390625,67.5696029663086,-133.8531951904297
24201.232421875,65.21858978271484,-123.68177795410156
26560.85546875,62.97658157348633,-114.2750015258789
29150.513671875,60.878353118896484,-105.60014343261719
31992.677734375,58.968345642089844,-97.65251159667969
35111.91015625,57.17428970336914,-90.26242065429688
38535.3359375,55.493106842041016,-83.42034149169922
42292.40625,53.9311637878418,-77.12118530273438
46415.8359375,52.46636962890625,-71.29890441894531
50941.3671875,51.13920974731445,-65.93190002441406
55908.109375,49.911781311035156,-60.98264694213867
61359.02734375,48.80805587768555,-56.42448043823242
67341.4921875,47.806602478027344,-52.248504638671875
73907.203125,46.886009216308594,-48.3916015625
81113.078125,46.03553771972656,-44.829498291015625
89021.515625,45.22956848144531,-41.51974868774414
97700.9765625,44.45628356933594,-38.450443267822266
107226.6640625,43.70729446411133,-35.58707809448242
117681.2265625,42.99540710449219,-32.94388961791992
129155.0,42.366058349609375,-30.51642608642578
141747.421875,41.81610107421875,-28.29069709777832
155567.546875,41.31156921386719,-26.232450485229492
170735.1875,40.82084655761719,-24.326139450073242
187381.765625,40.33058166503906,-22.560997009277344
205651.171875,39.896080017089844,-20.93943214416504
225701.953125,39.50519561767578,-19.44256591796875
247707.59375,39.111541748046875,-18.057872772216797
271858.78125,38.73932647705078,-16.77834701538086
298364.6875,38.411865234375,-15.598526000976562
327454.875,38.07311248779297,-14.506567001342773
359381.3125,37.769142150878906,-13.498954772949219
394420.46875,37.47365188598633,-12.565336227416992
432876.0625,37.19829559326172,-11.698286056518555
475080.9375,36.935298919677734,-10.897335052490234
521400.71875,36.69243240356445,-10.157747268676758
572236.75,36.46025466918945,-9.471264839172363
628029.0,36.246337890625,-8.83230209350586
689261.0,36.042789459228516,-8.243906021118164
756463.1875,35.85499572753906,-7.700541973114014
830217.375,35.683692932128906,-7.19256591796875
911162.625,35.527679443359375,-6.72556734085083
999999.8125,35.37607955932617,-6.298717498779297
4000.030517578125,172.65103149414062,-582.830322265625
